INITIAL
* 3:04pm Aug 30, 2024
* a1 vs a0
* 1 2 2 2 2 2 5 1 2 2 2 2 2 5
* X X X X
* X X X X
* X X X X
* X X X X
* X X X X
* X X X X
* X X X X
* X X X X
* first 0
* time 900
* 1. d1(P) b1(P)
* 2. c1(R) c3(r)
* 3. d2(p) d3(c)
* 4. d4(g) d2-d1
* 5. b2(p) b2-b1
* 6. d6(p) d7(N)
* 7. b4(G) b6(P)
* 8. a6(C) a7(K)
* 9. c6(n) b3(p)
* 10. c1-b1 c5(n)
* 11. d7-d6 c6-b6
* 12. b1-c1 c7(g)
* 13. c1-d1 a5(r)
* 14. d1-d2 b5(M)
* 15. b5-a5 c2(R)
* 16. d2-d3 b6-a6
* 17. c2-c3 b8(k)
* 18. a8(C) a6-b6
* 19. c8(m) d4-d3
* 20. c3-b3 d3-c3
* 21. a2(c) c7-d7
* 22. b3-b2 d7-d6
* 23. a1(G) c3-c2
* 24. b2-a2 c8-c7
* 25. a5-b5 c2-b2
* 26. a4(P) d6-c6
* 27. d8(N) b2-c2
* 28. b4-b3 c2-c1
* 29. a3(P) c1-d1
* 30. b3-c3 d1-c1
* 31. d5(p) d5-d4
* 32. c4(m) c1-d1
* 33. c3-c4 d1-c1
* 34. b5-c5 d4-d3
* 35. a2-b2 c1-d1
* 36. b2-b3 d1-c1
* 37. b7(M) c7-b7
* 38. c5-b5 c1-d1
* 39. a1-b1 d1-d2
* 40. b1-a1 d2-c2
* 41. a1-a2 c2-c1
* 42. a2-b2 c1-d1
* 43. b2-a2 d1-c1
* 44. b3-b2 c1-d1
* 45. b2-b1 d1-c1
* 46. a2-a1 c1-d1
* 47. b1-c1 d1-c1
* 48. a1-a2 c1-d1
* 49. a2-b2 d1-c1
* 50. b2-b3 c1-b1
* 51. b3-b4 b1-c1
* 52. a3-a2 c1-b1
* 53. a2-a1 b1-a1
* 54. c4-d4 a1-a2
* 55. d4-d3 a2-b2
* 56. d3-c3 b2-a2
* 57. b4-c4 a2-a1
* 58. a4-b4 a1-b1
* 59. c3-b3 b7-c7
* 60. b3-a3 b6-b7
* 61. a3-b3 b1-c1
* 62. b3-a3 c1-b1
* 63. c4-c3 b1-a1
* 64. c3-d3 a1-b1
* 65. d3-c3 b1-c1
* 66. c3-d3 c1-b1
* 67. d3-d2 b1-b2
* 68. d2-d1 b2-b1
* 69. a3-a2 c6-b6
* 70. b5-a5 b6-b5
* 71. a5-a6 b5-b4
* 72. a6-b6 b4-b3
* 73. b6-b7 c7-b7
* 74. d1-d2 b3-b4
* 75. d2-c2 b7-b6
* 76. c2-b2 b1-b2
* 77. a2-b2 b4-c4
* 78. b2-b1 c4-c3
* 79. b1-a1 c3-c2
* 80. a1-b1 c2-d2
* 81. d8-d7 d2-d3
* 82. b1-a1 d3-c3
* 83. a1-a2 c3-c4
* 84. a2-b2 c4-d4
* 85. b2-a2 d4-c4
* 86. d7-c7 c4-b4
* 87. a2-b2 b4-b5
* 88. b2-c2 b5-b4
* 89. c2-b2 b4-c4
* 90. b2-c2 c4-d4
* 91. c2-c1 d4-c4
* 92. c1-b1 b6-c6
* 93. c7-b7 c4-c5
* 94. b1-a1 c5-c4
* 95. a1-a2 c4-d4
* 96. a2-a1 d4-c4
* 97. a1-a2 c4-b4
* 98. a2-a1 b4-b3
* 99. a1-b1 b3-c3
* 100. b1-b2 c6-b6
* 101. b2-a2 b6-b7
* 102. a2-b2 c3-d3
* 103. b2-b3 d3-d4
* 104. b3-a3 d4-c4
* 105. a3-b3 c4-c5
* 106. b3-c3 c5-d5
* 107. c3-d3 d5-c5
* 108. d3-c3 c5-d5
* 109. c3-c4 d5-d6
* 110. c4-d4 d6-d7
* 111. d4-d5 d7-c7
* 112. d5-d4 c7-d7
* 113. d4-c4 d7-d6
* 114. c4-c3 d6-d7
* 115. c3-b3 d7-c7
* 116. b3-a3 c7-d7
* 117. a3-a2 b7-c7
* 118. a2-a1 d7-d6
* 119. a1-b1 d6-d5
* 120. b1-c1 d5-c5
* 121. c1-d1 c5-b5
* 122. d1-d2 b5-c5
* 123. d2-c2 c5-c6
* 124. c2-b2 c6-b6
* 125. b2-b1 c7-b7
* 126. b1-c1 b6-c6
* 127. c1-d1 c6-b6
* 128. a7-a6 b6-b5
* 129. a6-b6 b5-c5
* 130. b6-c6 c5-d5
* 131. c6-c5 d5-d6
* NoEatFlipDraw a1 Draw 0.2,0.2
* Comment 0 0
0. 1725030290568
1. 1725030290568
2. 1725030301190
3. 1725030312016
4. 1725030323498
5. 1725030329153
6. 1725030339869
7. 1725030345649
8. 1725030354084
9. 1725030359802
10. 1725030366863
11. 1725030371940
12. 1725030378563
13. 1725030382906
14. 1725030388154
15. 1725030391576
16. 1725030396090
17. 1725030398246
18. 1725030401073
19. 1725030403729
20. 1725030406135
21. 1725030407994
22. 1725030409806
23. 1725030411758
24. 1725030413430
25. 1725030414742
26. 1725030415945
27. 1725030416882
28. 1725030417679
29. 1725030418460
30. 1725030419210
31. 1725030419772
32. 1725030420334
33. 1725030420959
34. 1725030421506
35. 1725030421897
36. 1725030422209
37. 1725030422521
38. 1725030422834
39. 1725030423209
40. 1725030423521
41. 1725030423662
42. 1725030423912
43. 1725030424162
44. 1725030424380
45. 1725030424630
46. 1725030424880
47. 1725030425130
48. 1725030425333
49. 1725030425583
50. 1725030425817
51. 1725030426005
52. 1725030426255
53. 1725030426442
54. 1725030426692
55. 1725030426958
56. 1725030427130
57. 1725030427286
58. 1725030427505
59. 1725030427723
60. 1725030427864
61. 1725030428083
62. 1725030428317
63. 1725030428536
64. 1725030428770
65. 1725030428989
66. 1725030429223
67. 1725030429426
68. 1725030429660
69. 1725030429910
70. 1725030430129
71. 1725030430379
72. 1725030430629
73. 1725030430926
74. 1725030431176
75. 1725030431426
76. 1725030431660
77. 1725030431816
78. 1725030432082
79. 1725030432316
80. 1725030432535
81. 1725030432722
82. 1725030432972
83. 1725030433222
84. 1725030433347
85. 1725030433581
86. 1725030433800
87. 1725030434050
88. 1725030434300
89. 1725030434550
90. 1725030434800
91. 1725030435003
92. 1725030435237
93. 1725030435471
94. 1725030435721
95. 1725030435956
96. 1725030436159
97. 1725030436393
98. 1725030436596
99. 1725030436831
100. 1725030437080
101. 1725030437284
102. 1725030437502
103. 1725030437721
104. 1725030437955
105. 1725030438190
106. 1725030438393
107. 1725030438627
108. 1725030438768
109. 1725030439002
110. 1725030439189
111. 1725030439424
112. 1725030439674
113. 1725030439924
114. 1725030440158
115. 1725030440298
116. 1725030440470
117. 1725030440705
118. 1725030440939
119. 1725030441173
120. 1725030441345
121. 1725030441579
122. 1725030441782
123. 1725030442001
124. 1725030442142
125. 1725030442470
126. 1725030442689
127. 1725030442938
128. 1725030443126
129. 1725030443266
130. 1725030443501
131. 1725030443704
132. 1725030443891
133. 1725030444141
134. 1725030444391
135. 1725030444704
136. 1725030444938
137. 1725030445141
138. 1725030445360
139. 1725030445594
140. 1725030445797
141. 1725030446031
142. 1725030446235
143. 1725030446469
144. 1725030446703
145. 1725030446922
146. 1725030447125
147. 1725030447344
148. 1725030447578
149. 1725030447750
150. 1725030447969
151. 1725030448203
152. 1725030448406
153. 1725030448562
154. 1725030448718
155. 1725030448953
156. 1725030449359
157. 1725030449499
158. 1725030449734
159. 1725030450015
160. 1725030450218
161. 1725030450437
162. 1725030450671
163. 1725030450890
164. 1725030451124
165. 1725030451296
166. 1725030451421
167. 1725030451655
168. 1725030451811
169. 1725030451999
170. 1725030452233
171. 1725030452389
172. 1725030452608
173. 1725030452827
174. 1725030453014
175. 1725030453248
176. 1725030453530
177. 1725030453780
178. 1725030454045
179. 1725030454280
180. 1725030454529
181. 1725030454764
182. 1725030454920
183. 1725030455154
184. 1725030455295
185. 1725030455545
186. 1725030455717
187. 1725030455920
188. 1725030456170
189. 1725030456420
190. 1725030456670
191. 1725030456920
192. 1725030457169
193. 1725030457419
194. 1725030457654
195. 1725030457904
196. 1725030458154
197. 1725030458419
198. 1725030458591
199. 1725030458810
200. 1725030459060
201. 1725030459200
202. 1725030459466
203. 1725030459700
204. 1725030459903
205. 1725030460137
206. 1725030460341
207. 1725030460575
208. 1725030460794
209. 1725030461075
210. 1725030461497
211. 1725030461668
212. 1725030461934
213. 1725030462168
214. 1725030462403
215. 1725030462653
216. 1725030462887
217. 1725030463090
218. 1725030463340
219. 1725030463590
220. 1725030463840
221. 1725030464090
222. 1725030464277
223. 1725030464543
224. 1725030464777
225. 1725030465027
226. 1725030465277
227. 1725030465527
228. 1725030465777
229. 1725030466042
230. 1725030466277
231. 1725030466542
232. 1725030466777
233. 1725030467042
234. 1725030467261
235. 1725030467526
236. 1725030467761
237. 1725030468026
238. 1725030468261
239. 1725030468526
240. 1725030468760
241. 1725030468964
242. 1725030469198
243. 1725030469432
244. 1725030469682
245. 1725030469932
246. 1725030470182
247. 1725030470432
248. 1725030470682
249. 1725030470932
250. 1725030471182
251. 1725030471432
252. 1725030471666
253. 1725030471932
254. 1725030472182
255. 1725030472431
256. 1725030472681
257. 1725030472994
258. 1725030473244
259. 1725030473478
260. 1725030473728
261. 1725030473916
262. 1725030474165

# 17 37 67 87 117 137 167 187 217 237 267 287 317 337 367 387 417 437 467 487 517 537 567 587 617 637 667 687 717 737 767 787 817 837 867 887 917 937 967 987 1017 1037 1067 1087 1117 1137 1167 1187 1217 1237 1267 1287 1317 1337 1367 1387 1417 1437 1467 1487 1517 1537 1567 1587 1617 1637 1667 1687 1717 1737 1767 1787 1817 1837 1867 1887 1917 1937 1967 1987 2017 2037 2067 2087 2117 2137 2167 2187 2217 2237 2267 2287 2317 2337 2367 2387 2417 2437 2467 2487 2517 2537 2567 2587 2617 2637 2667 2687 2717 2737 2767 2787 2817 2837 2867 2887 2917 2937 2967 2987 3017 3037 3067 3087 3117 3137 3167 3187 3217 3237 3267 3287 3317 3337 3367 3387 3417 3437 3467 3487 3517 3537 3567 3587 3617 3637 3667 3687 3717 3737 3767 3787 3817 3837 3867 3887 3917 3937 3967 3987 4017 4037 4067 4087 4117 4137 4167 4187 4217 4237 4267 4287 4317 4337 4367 4387 4417 4437 4467 4487 4517 4537 4567 4587 4617 4637 4667 4687 4717 4737 4767 4787 4817 4837 4867 4887 4917 4937 4967 4987 5017 5037 5067 5087 5117 5137 5167 5187 5217 5237 5267 5287 5317 5337 5367 5387 5417 5437 5467 5487 5517 5537 5567 5587 5617 5637 5667 5687 5717 5737 5767 5787 5817 5837 5867 5887 5917 5937 5967 5987 6017 6037 6067 6087 6117 6137 6167 6187 6217 6237 6267 6287 6317 6337 6367 6387 6417 6437 6467 6487 6517 6537 #
=1 MyAI
=2 1.0.0
------------Red-------------
<8>    X    X    X    X 
<7>    X    X    X    X 
<6>    X    X    X    X 
<5>    X    X    X    X 
<4>    X    X    X    X 
<3>    X    X    X    X 
<2>    X    X    X    X 
<1>    X    X    X    X 

      <a>  <b>  <c>  <d> 

=7
=15
=14
My result: 
--------------------------
Nega max: -0.185625 (node: 78983040)
(31) -> (31)
< X > -> < X >
move:d1-d1
--------------------------
------------Black-------------
<8>    X    X    X    X 
<7>    X    X    X    X 
<6>    X    X    X    X 
<5>    X    X    X    X 
<4>    X    X    X    X 
<3>    X    X    X    X 
<2>    X    X    X    X 
<1>    X    X    X    X 

      <a>  <b>  <c>  <d> 

=12 d1 d1
# call flip(): flip(31,31) = 7
------------Black-------------
<8>    X    X    X    X 
<7>    X    X    X    X 
<6>    X    X    X    X 
<5>    X    X    X    X 
<4>    X    X    X    X 
<3>    X    X    X    X 
<2>    X    X    X    X 
<1>    X    X    X    P 

      <a>  <b>  <c>  <d> 

=11
=16
# call flip(): flip(29,29) = 7
------------Black-------------
<8>    X    X    X    X 
<7>    X    X    X    X 
<6>    X    X    X    X 
<5>    X    X    X    X 
<4>    X    X    X    X 
<3>    X    X    X    X 
<2>    X    X    X    X 
<1>    X    P    X    P 

      <a>  <b>  <c>  <d> 

=11
=16
My result: 
--------------------------
Nega max: 0.013546 (node: 64676166)
(30) -> (30)
< X > -> < X >
move:c1-c1
--------------------------
------------Red-------------
<8>    X    X    X    X 
<7>    X    X    X    X 
<6>    X    X    X    X 
<5>    X    X    X    X 
<4>    X    X    X    X 
<3>    X    X    X    X 
<2>    X    X    X    X 
<1>    X    P    X    P 

      <a>  <b>  <c>  <d> 

=12 c1 c1
# call flip(): flip(30,30) = 4
------------Red-------------
<8>    X    X    X    X 
<7>    X    X    X    X 
<6>    X    X    X    X 
<5>    X    X    X    X 
<4>    X    X    X    X 
<3>    X    X    X    X 
<2>    X    X    X    X 
<1>    X    P    R    P 

      <a>  <b>  <c>  <d> 

=11
=16
# call flip(): flip(22,22) = 12
------------Red-------------
<8>    X    X    X    X 
<7>    X    X    X    X 
<6>    X    X    X    X 
<5>    X    X    X    X 
<4>    X    X    X    X 
<3>    X    X    r    X 
<2>    X    X    X    X 
<1>    X    P    R    P 

      <a>  <b>  <c>  <d> 

=11
=16
My result: 
--------------------------
Nega max: 0.014559 (node: 50673807)
(27) -> (27)
< X > -> < X >
move:d2-d2
--------------------------
------------Red-------------
<8>    X    X    X    X 
<7>    X    X    X    X 
<6>    X    X    X    X 
<5>    X    X    X    X 
<4>    X    X    X    X 
<3>    X    X    r    X 
<2>    X    X    X    X 
<1>    X    P    R    P 

      <a>  <b>  <c>  <d> 

=12 d2 d2
# call flip(): flip(27,27) = 15
------------Red-------------
<8>    X    X    X    X 
<7>    X    X    X    X 
<6>    X    X    X    X 
<5>    X    X    X    X 
<4>    X    X    X    X 
<3>    X    X    r    X 
<2>    X    X    X    p 
<1>    X    P    R    P 

      <a>  <b>  <c>  <d> 

=11
=16
# call flip(): flip(23,23) = 14
------------Red-------------
<8>    X    X    X    X 
<7>    X    X    X    X 
<6>    X    X    X    X 
<5>    X    X    X    X 
<4>    X    X    X    X 
<3>    X    X    r    c 
<2>    X    X    X    p 
<1>    X    P    R    P 

      <a>  <b>  <c>  <d> 

=11
=16
My result: 
--------------------------
Nega max: -0.056916 (node: 40119889)
(19) -> (19)
< X > -> < X >
move:d4-d4
--------------------------
------------Red-------------
<8>    X    X    X    X 
<7>    X    X    X    X 
<6>    X    X    X    X 
<5>    X    X    X    X 
<4>    X    X    X    X 
<3>    X    X    r    c 
<2>    X    X    X    p 
<1>    X    P    R    P 

      <a>  <b>  <c>  <d> 

=12 d4 d4
# call flip(): flip(19,19) = 10
------------Red-------------
<8>    X    X    X    X 
<7>    X    X    X    X 
<6>    X    X    X    X 
<5>    X    X    X    X 
<4>    X    X    X    g 
<3>    X    X    r    c 
<2>    X    X    X    p 
<1>    X    P    R    P 

      <a>  <b>  <c>  <d> 

=11
=16
# call move(): move : 27-31 
------------Red-------------
<8>    X    X    X    X 
<7>    X    X    X    X 
<6>    X    X    X    X 
<5>    X    X    X    X 
<4>    X    X    X    g 
<3>    X    X    r    c 
<2>    X    X    X    - 
<1>    X    P    R    p 

      <a>  <b>  <c>  <d> 

=10
=16
My result: 
--------------------------
Nega max: -0.195711 (node: 34979454)
(25) -> (25)
< X > -> < X >
move:b2-b2
--------------------------
------------Red-------------
<8>    X    X    X    X 
<7>    X    X    X    X 
<6>    X    X    X    X 
<5>    X    X    X    X 
<4>    X    X    X    g 
<3>    X    X    r    c 
<2>    X    X    X    - 
<1>    X    P    R    p 

      <a>  <b>  <c>  <d> 

=12 b2 b2
# call flip(): flip(25,25) = 15
------------Red-------------
<8>    X    X    X    X 
<7>    X    X    X    X 
<6>    X    X    X    X 
<5>    X    X    X    X 
<4>    X    X    X    g 
<3>    X    X    r    c 
<2>    X    p    X    - 
<1>    X    P    R    p 

      <a>  <b>  <c>  <d> 

=11
=16
# call move(): move : 25-29 
------------Red-------------
<8>    X    X    X    X 
<7>    X    X    X    X 
<6>    X    X    X    X 
<5>    X    X    X    X 
<4>    X    X    X    g 
<3>    X    X    r    c 
<2>    X    -    X    - 
<1>    X    p    R    p 

      <a>  <b>  <c>  <d> 

=10
=16
My result: 
--------------------------
Nega max: -0.200192 (node: 31140531)
(11) -> (11)
< X > -> < X >
move:d6-d6
--------------------------
------------Red-------------
<8>    X    X    X    X 
<7>    X    X    X    X 
<6>    X    X    X    X 
<5>    X    X    X    X 
<4>    X    X    X    g 
<3>    X    X    r    c 
<2>    X    -    X    - 
<1>    X    p    R    p 

      <a>  <b>  <c>  <d> 

=12 d6 d6
# call flip(): flip(11,11) = 15
------------Red-------------
<8>    X    X    X    X 
<7>    X    X    X    X 
<6>    X    X    X    p 
<5>    X    X    X    X 
<4>    X    X    X    g 
<3>    X    X    r    c 
<2>    X    -    X    - 
<1>    X    p    R    p 

      <a>  <b>  <c>  <d> 

=11
=16
# call flip(): flip(7,7) = 5
------------Red-------------
<8>    X    X    X    X 
<7>    X    X    X    N 
<6>    X    X    X    p 
<5>    X    X    X    X 
<4>    X    X    X    g 
<3>    X    X    r    c 
<2>    X    -    X    - 
<1>    X    p    R    p 

      <a>  <b>  <c>  <d> 

=11
=16
My result: 
--------------------------
Nega max: -0.195175 (node: 23579650)
(17) -> (17)
< X > -> < X >
move:b4-b4
--------------------------
------------Red-------------
<8>    X    X    X    X 
<7>    X    X    X    N 
<6>    X    X    X    p 
<5>    X    X    X    X 
<4>    X    X    X    g 
<3>    X    X    r    c 
<2>    X    -    X    - 
<1>    X    p    R    p 

      <a>  <b>  <c>  <d> 

=12 b4 b4
# call flip(): flip(17,17) = 2
------------Red-------------
<8>    X    X    X    X 
<7>    X    X    X    N 
<6>    X    X    X    p 
<5>    X    X    X    X 
<4>    X    G    X    g 
<3>    X    X    r    c 
<2>    X    -    X    - 
<1>    X    p    R    p 

      <a>  <b>  <c>  <d> 

=11
=16
# call flip(): flip(9,9) = 7
------------Red-------------
<8>    X    X    X    X 
<7>    X    X    X    N 
<6>    X    P    X    p 
<5>    X    X    X    X 
<4>    X    G    X    g 
<3>    X    X    r    c 
<2>    X    -    X    - 
<1>    X    p    R    p 

      <a>  <b>  <c>  <d> 

=11
=16
My result: 
--------------------------
Nega max: -0.061500 (node: 17277694)
(8) -> (8)
< X > -> < X >
move:a6-a6
--------------------------
------------Red-------------
<8>    X    X    X    X 
<7>    X    X    X    N 
<6>    X    P    X    p 
<5>    X    X    X    X 
<4>    X    G    X    g 
<3>    X    X    r    c 
<2>    X    -    X    - 
<1>    X    p    R    p 

      <a>  <b>  <c>  <d> 

=12 a6 a6
# call flip(): flip(8,8) = 6
------------Red-------------
<8>    X    X    X    X 
<7>    X    X    X    N 
<6>    C    P    X    p 
<5>    X    X    X    X 
<4>    X    G    X    g 
<3>    X    X    r    c 
<2>    X    -    X    - 
<1>    X    p    R    p 

      <a>  <b>  <c>  <d> 

=11
=16
# call flip(): flip(4,4) = 1
------------Red-------------
<8>    X    X    X    X 
<7>    K    X    X    N 
<6>    C    P    X    p 
<5>    X    X    X    X 
<4>    X    G    X    g 
<3>    X    X    r    c 
<2>    X    -    X    - 
<1>    X    p    R    p 

      <a>  <b>  <c>  <d> 

=11
=16
My result: 
--------------------------
Nega max: 0.397000 (node: 9815097)
(10) -> (10)
< X > -> < X >
move:c6-c6
--------------------------
------------Red-------------
<8>    X    X    X    X 
<7>    K    X    X    N 
<6>    C    P    X    p 
<5>    X    X    X    X 
<4>    X    G    X    g 
<3>    X    X    r    c 
<2>    X    -    X    - 
<1>    X    p    R    p 

      <a>  <b>  <c>  <d> 

=12 c6 c6
# call flip(): flip(10,10) = 13
------------Red-------------
<8>    X    X    X    X 
<7>    K    X    X    N 
<6>    C    P    n    p 
<5>    X    X    X    X 
<4>    X    G    X    g 
<3>    X    X    r    c 
<2>    X    -    X    - 
<1>    X    p    R    p 

      <a>  <b>  <c>  <d> 

=11
=16
# call flip(): flip(21,21) = 15
------------Red-------------
<8>    X    X    X    X 
<7>    K    X    X    N 
<6>    C    P    n    p 
<5>    X    X    X    X 
<4>    X    G    X    g 
<3>    X    p    r    c 
<2>    X    -    X    - 
<1>    X    p    R    p 

      <a>  <b>  <c>  <d> 

=11
=16
My result: 
--------------------------
Nega max: 0.388988 (node: 6781335)
(30) -> (29)
< R > -> < p >
move:c1-b1
--------------------------
------------Red-------------
<8>    X    X    X    X 
<7>    K    X    X    N 
<6>    C    P    n    p 
<5>    X    X    X    X 
<4>    X    G    X    g 
<3>    X    p    r    c 
<2>    X    -    X    - 
<1>    X    p    R    p 

      <a>  <b>  <c>  <d> 

=12 c1 b1
# call move(): move : 30-29 
------------Red-------------
<8>    X    X    X    X 
<7>    K    X    X    N 
<6>    C    P    n    p 
<5>    X    X    X    X 
<4>    X    G    X    g 
<3>    X    p    r    c 
<2>    X    -    X    - 
<1>    X    R    -    p 

      <a>  <b>  <c>  <d> 

=10
=16
# call flip(): flip(14,14) = 13
------------Red-------------
<8>    X    X    X    X 
<7>    K    X    X    N 
<6>    C    P    n    p 
<5>    X    X    n    X 
<4>    X    G    X    g 
<3>    X    p    r    c 
<2>    X    -    X    - 
<1>    X    R    -    p 

      <a>  <b>  <c>  <d> 

=11
=16
My result: 
--------------------------
Nega max: 0.384926 (node: 4368529)
(7) -> (11)
< N > -> < p >
move:d7-d6
--------------------------
------------Red-------------
<8>    X    X    X    X 
<7>    K    X    X    N 
<6>    C    P    n    p 
<5>    X    X    n    X 
<4>    X    G    X    g 
<3>    X    p    r    c 
<2>    X    -    X    - 
<1>    X    R    -    p 

      <a>  <b>  <c>  <d> 

=12 d7 d6
# call move(): move : 7-11 
------------Red-------------
<8>    X    X    X    X 
<7>    K    X    X    - 
<6>    C    P    n    N 
<5>    X    X    n    X 
<4>    X    G    X    g 
<3>    X    p    r    c 
<2>    X    -    X    - 
<1>    X    R    -    p 

      <a>  <b>  <c>  <d> 

=10
=16
# call move(): move : 10-9 
------------Red-------------
<8>    X    X    X    X 
<7>    K    X    X    - 
<6>    C    n    -    N 
<5>    X    X    n    X 
<4>    X    G    X    g 
<3>    X    p    r    c 
<2>    X    -    X    - 
