INITIAL
* 3:07pm Aug 30, 2024
* a0 vs a1
* 1 2 2 2 2 2 5 1 2 2 2 2 2 5
* X X X X
* X X X X
* X X X X
* X X X X
* X X X X
* X X X X
* X X X X
* X X X X
* first 1
* time 900
* 1. c1(p) a1(p)
* 2. b1(n) b3(n)
* 3. c2(P) d2(c)
* 4. d4(c) c4(P)
* 5. d6(p) d3(G)
* 6. a2(P) c5(C)
* 7. c6(P) a5(r)
* 8. b5(r) c7(k)
* 9. b5-c5 c6-c7
* 10. d7(N) d3-d4
* 11. a1-a2 d4-d3
* 12. c1-c2 d3-d2
* 13. c5-c4 b6(M)
* 14. d6-c6 a7(g)
* 15. b1-a1 d5(N)
* 16. c4-c5 c8(G)
* 17. c5-d5 a8(p)
* 18. d5-d6 b4(p)
* 19. a3(m) b7(R)
* 20. a7-b7 a6(M)
* 21. b7-b6 a6-a5
* 22. b6-b5 a5-a6
* 23. b5-a5 a6-b6
* 24. a5-b5 b6-c6
* 25. b5-b6 c6-d6
* 26. b6-c6 d8(K)
* 27. c6-d6 d2-c2
* 28. d1(C) c2-d2
* 29. d6-c6 d1-c1
* 30. c6-b6 c1-c2
* 31. a4(P) a4-b4
* 32. c3(m) c2-c1
* 33. b2(R) c1-d1
* 34. b3-b4 d2-d3
* 35. c3-b3 b2-c2
* 36. a1-b1 c2-d2
* 37. b1-a1 d7-d6
* 38. a1-b1 d3-c3
* 39. b3-b2 c7-d7
* 40. b1-a1 c3-b3
* 41. b2-b1 b3-a3
* 42. b1-b2 a3-a2
* 43. b2-b1 a2-a1
* 44. b1-c1 d2-c2
* 45. c1-d1 a1-b1
* 46. b4-a4 b1-a1
* 47. d1-c1 c2-d2
* 48. c1-d1 d2-c2
* 49. a4-a5 a1-a2
* 50. d1-c1 a2-b2
* 51. a5-a4 c2-c3
* 52. c1-d1 b2-a2
* 53. a4-a5 a2-b2
* 54. b6-b5 b2-a2
* 55. d1-c1 c3-b3
* 56. c1-b1 a2-b2
* 57. b1-c1 b2-b1
* 58. c1-c2 b1-a1
* 59. c2-b2 b3-c3
* 60. b5-c5 a1-b1
* 61. b2-a2 c3-d3
* 62. c5-b5 b1-a1
* 63. a2-b2 d3-c3
* 64. b2-c2 c3-d3
* 65. c2-b2 a1-b1
* 66. b2-b3 b1-a1
* 67. b3-a3 a1-b1
* 68. a8-a7 b1-a1
* 69. a3-b3 a1-a2
* 70. b3-c3 d3-d2
* 71. c3-b3 d2-c2
* 72. b3-c3 c2-b2
* 73. c3-b3 b2-c2
* 74. b3-c3 c2-c1
* 75. c3-b3
* NoEatFlipDraw a0 Draw 0.2,0.2375
* Comment 0 0
0. 1725030487553
1. 1725030487553
2. 1725030499972
3. 1725030513234
4. 1725030524232
5. 1725030533480
6. 1725030541681
7. 1725030549804
8. 1725030556052
9. 1725030561864
10. 1725030567472
11. 1725030572267
12. 1725030576844
13. 1725030581203
14. 1725030584639
15. 1725030587967
16. 1725030590201
17. 1725030591825
18. 1725030593387
19. 1725030594887
20. 1725030596246
21. 1725030597558
22. 1725030598824
23. 1725030600136
24. 1725030601495
25. 1725030602745
26. 1725030603807
27. 1725030604822
28. 1725030605744
29. 1725030606572
30. 1725030607368
31. 1725030608071
32. 1725030608681
33. 1725030609055
34. 1725030609477
35. 1725030609805
36. 1725030610165
37. 1725030610430
38. 1725030610664
39. 1725030610993
40. 1725030611227
41. 1725030611492
42. 1725030611727
43. 1725030612008
44. 1725030612211
45. 1725030612508
46. 1725030612852
47. 1725030613070
48. 1725030613289
49. 1725030613508
50. 1725030613726
51. 1725030613945
52. 1725030614164
53. 1725030614382
54. 1725030614539
55. 1725030614757
56. 1725030614992
57. 1725030615242
58. 1725030615476
59. 1725030615616
60. 1725030615851
61. 1725030616116
62. 1725030616351
63. 1725030616554
64. 1725030616788
65. 1725030617054
66. 1725030617288
67. 1725030617554
68. 1725030617788
69. 1725030618053
70. 1725030618288
71. 1725030618538
72. 1725030618772
73. 1725030618975
74. 1725030619209
75. 1725030619475
76. 1725030619709
77. 1725030619912
78. 1725030620147
79. 1725030620287
80. 1725030620522
81. 1725030620678
82. 1725030620896
83. 1725030621115
84. 1725030621318
85. 1725030621490
86. 1725030621709
87. 1725030621928
88. 1725030622146
89. 1725030622365
90. 1725030622615
91. 1725030622865
92. 1725030623083
93. 1725030623302
94. 1725030623521
95. 1725030623740
96. 1725030623958
97. 1725030624177
98. 1725030624396
99. 1725030624614
100. 1725030624849
101. 1725030625114
102. 1725030625333
103. 1725030625536
104. 1725030625770
105. 1725030625973
106. 1725030626208
107. 1725030626426
108. 1725030626598
109. 1725030627004
110. 1725030627208
111. 1725030627411
112. 1725030627661
113. 1725030627910
114. 1725030628160
115. 1725030628410
116. 1725030628598
117. 1725030628848
118. 1725030629098
119. 1725030629332
120. 1725030629582
121. 1725030629832
122. 1725030630082
123. 1725030630332
124. 1725030630582
125. 1725030630832
126. 1725030631082
127. 1725030631332
128. 1725030631581
129. 1725030631831
130. 1725030632081
131. 1725030632331
132. 1725030632581
133. 1725030632816
134. 1725030633081
135. 1725030633315
136. 1725030633565
137. 1725030633815
138. 1725030634065
139. 1725030634268
140. 1725030634503
141. 1725030634643
142. 1725030634878
143. 1725030635143
144. 1725030635362
145. 1725030635565
146. 1725030635799
147. 1725030636034
148. 1725030636299
149. 1725030636533

# 17 32 52 82 102 132 152 182 202 232 252 282 302 332 352 382 402 432 452 482 502 532 552 582 602 632 652 682 702 732 752 782 802 832 852 882 902 932 952 982 1002 1032 1052 1082 1102 1132 1152 1182 1202 1232 1252 1282 1302 1332 1352 1382 1402 1432 1452 1482 1502 1532 1552 1582 1602 1632 1652 1682 1702 1732 1752 1782 1802 1832 1852 1882 1902 1932 1952 1982 2002 2032 2052 2082 2102 2132 2152 2182 2202 2232 2252 2282 2302 2332 2352 2382 2402 2432 2452 2482 2502 2532 2552 2582 2602 2632 2652 2682 2702 2732 2752 2782 2802 2832 2852 2882 2902 2932 2952 2982 3002 3032 3052 3082 3102 3132 3152 3182 3202 3232 3252 3282 3302 3332 3352 3382 3402 3432 3452 3482 3502 3532 3552 3582 3602 3632 3652 3682 3702 #
=1 MyAI
=2 1.0.0
------------Red-------------
<8>    X    X    X    X 
<7>    X    X    X    X 
<6>    X    X    X    X 
<5>    X    X    X    X 
<4>    X    X    X    X 
<3>    X    X    X    X 
<2>    X    X    X    X 
<1>    X    X    X    X 

      <a>  <b>  <c>  <d> 

=7
=15
=14
# call flip(): flip(30,30) = 15
------------Red-------------
<8>    X    X    X    X 
<7>    X    X    X    X 
<6>    X    X    X    X 
<5>    X    X    X    X 
<4>    X    X    X    X 
<3>    X    X    X    X 
<2>    X    X    X    X 
<1>    X    X    p    X 

      <a>  <b>  <c>  <d> 

=11
=16
My result: 
--------------------------
Nega max: -0.000204 (node: 71601250)
(28) -> (28)
< X > -> < X >
move:a1-a1
--------------------------
------------Red-------------
<8>    X    X    X    X 
<7>    X    X    X    X 
<6>    X    X    X    X 
<5>    X    X    X    X 
<4>    X    X    X    X 
<3>    X    X    X    X 
<2>    X    X    X    X 
<1>    X    X    p    X 

      <a>  <b>  <c>  <d> 

=12 a1 a1
# call flip(): flip(28,28) = 15
------------Red-------------
<8>    X    X    X    X 
<7>    X    X    X    X 
<6>    X    X    X    X 
<5>    X    X    X    X 
<4>    X    X    X    X 
<3>    X    X    X    X 
<2>    X    X    X    X 
<1>    p    X    p    X 

      <a>  <b>  <c>  <d> 

=11
=16
# call flip(): flip(29,29) = 13
------------Red-------------
<8>    X    X    X    X 
<7>    X    X    X    X 
<6>    X    X    X    X 
<5>    X    X    X    X 
<4>    X    X    X    X 
<3>    X    X    X    X 
<2>    X    X    X    X 
<1>    p    n    p    X 

      <a>  <b>  <c>  <d> 

=11
=16
My result: 
--------------------------
Nega max: -0.003206 (node: 57359228)
(21) -> (21)
< X > -> < X >
move:b3-b3
--------------------------
------------Red-------------
<8>    X    X    X    X 
<7>    X    X    X    X 
<6>    X    X    X    X 
<5>    X    X    X    X 
<4>    X    X    X    X 
<3>    X    X    X    X 
<2>    X    X    X    X 
<1>    p    n    p    X 

      <a>  <b>  <c>  <d> 

=12 b3 b3
# call flip(): flip(21,21) = 13
------------Red-------------
<8>    X    X    X    X 
<7>    X    X    X    X 
<6>    X    X    X    X 
<5>    X    X    X    X 
<4>    X    X    X    X 
<3>    X    n    X    X 
<2>    X    X    X    X 
<1>    p    n    p    X 

      <a>  <b>  <c>  <d> 

=11
=16
# call flip(): flip(26,26) = 7
------------Red-------------
<8>    X    X    X    X 
<7>    X    X    X    X 
<6>    X    X    X    X 
<5>    X    X    X    X 
<4>    X    X    X    X 
<3>    X    n    X    X 
<2>    X    X    P    X 
<1>    p    n    p    X 

      <a>  <b>  <c>  <d> 

=11
=16
My result: 
--------------------------
Nega max: -0.006278 (node: 37499040)
(27) -> (27)
< X > -> < X >
move:d2-d2
--------------------------
------------Red-------------
<8>    X    X    X    X 
<7>    X    X    X    X 
<6>    X    X    X    X 
<5>    X    X    X    X 
<4>    X    X    X    X 
<3>    X    n    X    X 
<2>    X    X    P    X 
<1>    p    n    p    X 

      <a>  <b>  <c>  <d> 

=12 d2 d2
# call flip(): flip(27,27) = 14
------------Red-------------
<8>    X    X    X    X 
<7>    X    X    X    X 
<6>    X    X    X    X 
<5>    X    X    X    X 
<4>    X    X    X    X 
<3>    X    n    X    X 
<2>    X    X    P    c 
<1>    p    n    p    X 

      <a>  <b>  <c>  <d> 

=11
=16
# call flip(): flip(19,19) = 14
------------Red-------------
<8>    X    X    X    X 
<7>    X    X    X    X 
<6>    X    X    X    X 
<5>    X    X    X    X 
<4>    X    X    X    c 
<3>    X    n    X    X 
<2>    X    X    P    c 
<1>    p    n    p    X 

      <a>  <b>  <c>  <d> 

=11
=16
My result: 
--------------------------
Nega max: -0.144201 (node: 23111622)
(18) -> (18)
< X > -> < X >
move:c4-c4
--------------------------
------------Red-------------
<8>    X    X    X    X 
<7>    X    X    X    X 
<6>    X    X    X    X 
<5>    X    X    X    X 
<4>    X    X    X    c 
<3>    X    n    X    X 
<2>    X    X    P    c 
<1>    p    n    p    X 

      <a>  <b>  <c>  <d> 

=12 c4 c4
# call flip(): flip(18,18) = 7
------------Red-------------
<8>    X    X    X    X 
<7>    X    X    X    X 
<6>    X    X    X    X 
<5>    X    X    X    X 
<4>    X    X    P    c 
<3>    X    n    X    X 
<2>    X    X    P    c 
<1>    p    n    p    X 

      <a>  <b>  <c>  <d> 

=11
=16
# call flip(): flip(11,11) = 15
------------Red-------------
<8>    X    X    X    X 
<7>    X    X    X    X 
<6>    X    X    X    p 
<5>    X    X    X    X 
<4>    X    X    P    c 
<3>    X    n    X    X 
<2>    X    X    P    c 
<1>    p    n    p    X 

      <a>  <b>  <c>  <d> 

=11
=16
My result: 
--------------------------
Nega max: -0.140356 (node: 17824225)
(23) -> (23)
< X > -> < X >
move:d3-d3
--------------------------
------------Red-------------
<8>    X    X    X    X 
<7>    X    X    X    X 
<6>    X    X    X    p 
<5>    X    X    X    X 
<4>    X    X    P    c 
<3>    X    n    X    X 
<2>    X    X    P    c 
<1>    p    n    p    X 

      <a>  <b>  <c>  <d> 

=12 d3 d3
# call flip(): flip(23,23) = 2
------------Red-------------
<8>    X    X    X    X 
<7>    X    X    X    X 
<6>    X    X    X    p 
<5>    X    X    X    X 
<4>    X    X    P    c 
<3>    X    n    X    G 
<2>    X    X    P    c 
<1>    p    n    p    X 

      <a>  <b>  <c>  <d> 

=11
=16
# call flip(): flip(24,24) = 7
------------Red-------------
<8>    X    X    X    X 
<7>    X    X    X    X 
<6>    X    X    X    p 
<5>    X    X    X    X 
<4>    X    X    P    c 
<3>    X    n    X    G 
<2>    P    X    P    c 
<1>    p    n    p    X 

      <a>  <b>  <c>  <d> 

=11
=16
My result: 
--------------------------
Nega max: 0.055839 (node: 13560549)
(14) -> (14)
< X > -> < X >
move:c5-c5
--------------------------
------------Red-------------
<8>    X    X    X    X 
<7>    X    X    X    X 
<6>    X    X    X    p 
<5>    X    X    X    X 
<4>    X    X    P    c 
<3>    X    n    X    G 
<2>    P    X    P    c 
<1>    p    n    p    X 

      <a>  <b>  <c>  <d> 

=12 c5 c5
# call flip(): flip(14,14) = 6
------------Red-------------
<8>    X    X    X    X 
<7>    X    X    X    X 
<6>    X    X    X    p 
<5>    X    X    C    X 
<4>    X    X    P    c 
<3>    X    n    X    G 
<2>    P    X    P    c 
<1>    p    n    p    X 

      <a>  <b>  <c>  <d> 

=11
=16
# call flip(): flip(10,10) = 7
------------Red-------------
<8>    X    X    X    X 
<7>    X    X    X    X 
<6>    X    X    P    p 
<5>    X    X    C    X 
<4>    X    X    P    c 
<3>    X    n    X    G 
<2>    P    X    P    c 
<1>    p    n    p    X 

      <a>  <b>  <c>  <d> 

=11
=16
My result: 
--------------------------
Nega max: 0.147626 (node: 9705824)
(12) -> (12)
< X > -> < X >
move:a5-a5
--------------------------
------------Red-------------
<8>    X    X    X    X 
<7>    X    X    X    X 
<6>    X    X    P    p 
<5>    X    X    C    X 
<4>    X    X    P    c 
<3>    X    n    X    G 
<2>    P    X    P    c 
<1>    p    n    p    X 

      <a>  <b>  <c>  <d> 

=12 a5 a5
# call flip(): flip(12,12) = 12
------------Red-------------
<8>    X    X    X    X 
<7>    X    X    X    X 
<6>    X    X    P    p 
<5>    r    X    C    X 
<4>    X    X    P    c 
<3>    X    n    X    G 
<2>    P    X    P    c 
<1>    p    n    p    X 

      <a>  <b>  <c>  <d> 

=11
=16
# call flip(): flip(13,13) = 12
------------Red-------------
<8>    X    X    X    X 
<7>    X    X    X    X 
<6>    X    X    P    p 
<5>    r    r    C    X 
<4>    X    X    P    c 
<3>    X    n    X    G 
<2>    P    X    P    c 
<1>    p    n    p    X 

      <a>  <b>  <c>  <d> 

=11
=16
My result: 
--------------------------
Nega max: 0.039503 (node: 5345530)
(6) -> (6)
< X > -> < X >
move:c7-c7
--------------------------
------------Red-------------
<8>    X    X    X    X 
<7>    X    X    X    X 
<6>    X    X    P    p 
<5>    r    r    C    X 
<4>    X    X    P    c 
<3>    X    n    X    G 
<2>    P    X    P    c 
<1>    p    n    p    X 

      <a>  <b>  <c>  <d> 

=12 c7 c7
# call flip(): flip(6,6) = 9
------------Red-------------
<8>    X    X    X    X 
<7>    X    X    k    X 
<6>    X    X    P    p 
<5>    r    r    C    X 
<4>    X    X    P    c 
<3>    X    n    X    G 
<2>    P    X    P    c 
<1>    p    n    p    X 

      <a>  <b>  <c>  <d> 

=11
=16
# call move(): move : 13-14 
------------Red-------------
<8>    X    X    X    X 
<7>    X    X    k    X 
<6>    X    X    P    p 
<5>    r    -    r    X 
<4>    X    X    P    c 
<3>    X    n    X    G 
<2>    P    X    P    c 
<1>    p    n    p    X 

      <a>  <b>  <c>  <d> 

=10
=16
My result: 
--------------------------
Nega max: 0.021400 (node: 3466448)
(10) -> (6)
< P > -> < k >
move:c6-c7
--------------------------
------------Red-------------
<8>    X    X    X    X 
<7>    X    X    k    X 
<6>    X    X    P    p 
<5>    r    -    r    X 
<4>    X    X    P    c 
<3>    X    n    X    G 
<2>    P    X    P    c 
<1>    p    n    p    X 

      <a>  <b>  <c>  <d> 

=12 c6 c7
# call move(): move : 10-6 
------------Red-------------
<8>    X    X    X    X 
<7>    X    X    P    X 
<6>    X    X    -    p 
<5>    r    -    r    X 
<4>    X    X    P    c 
<3>    X    n    X    G 
<2>    P    X    P    c 
<1>    p    n    p    X 

      <a>  <b>  <c>  <d> 

=10
=16
# call flip(): flip(7,7) = 5
------------Red-------------
<8>    X    X    X    X 
<7>    X    X    P    N 
<6>    X    X    -    p 
<5>    r    -    r    X 
<4>    X    X    P    c 
<3>    X    n    X    G 
<2>    P    X    P    c 
<1>    p    n    p    X 

      <a>  <b>  <c>  <d> 

=11
=16
My result: 
--------------------------
Nega max: 0.050307 (node: 2772598)
(23) -> (19)
< G > -> < c >
move:d3-d4
--------------------------
------------Red-------------
<8>    X    X    X    X 
<7>    X    X    P    N 
<6>    X    X    -    p 
<5>    r    -    r    X 
<4>    X    X    P    c 
<3>    X    n    X    G 
<2>    P    X    P    c 
<1>    p    n    p    X 

      <a>  <b>  <c>  <d> 

=12 d3 d4
# call move(): move : 23-19 
------------Red-------------
<8>    X    X    X    X 
<7>    X    X    P    N 
<6>    X    X    -    p 
<5>    r    -    r    X 
<4>    X    X    P    G 
<3>    X    n    X    - 
<2>    P    X    P    c 
<1>    p    n    p    X 

      <a>  <b>  <c>  <d> 

=10
=16
# call move(): move : 28-24 
------------Red-------------
<8>    X    X    X    X 
<7>    X    X    P    N 
<6>    X    X    -    p 
<5>    r    -    r    X 
<4>    X    X    P    G 
<3>    X    n    X    - 
<2>    p    X    P    c 
<1>    -    n    p    X 

      <a>  <b>  <c>  <d> 

=10
=16
My result: 
--------------------------
Nega max: 0.115661 (node: 2730740)
(19) -> (23)
< G > -> < - >
move:d4-d3
--------------------------
------------Red-------------
<8>    X    X    X    X 
<7>    X    X    P    N 
<6>    X    X    -    p 
<5>    r    -    r    X 
<4>    X    X    P    G 
<3>    X    n    X    - 
<2>    p    X    P    c 
<1>    -    n    p    X 

      <a>  <b>  <c>  <d> 

=12 d4 d3
# call move(): move : 19-23 
------------Red-------------
<8>    X    X    X    X 
<7>    X    X    P    N 
<6>    X    X    -    p 
<5>    r    -    r    X 
<4>    X    X    P    - 
<3>    X    n    X    G 
<2>    p    X    P    c 
<1>    -    n    p    X 

      <a>  <b>  <c>  <d> 

=10
=16
# call move(): move : 30-26 
------------Red-------------
<8>    X    X    X    X 
<7>    X    X    P    N 
<6>    X    X    -    p 
<5>    r    -    r    X 
<4>    X    X    P    - 
<3>    X    n    X    G 
<2>    p    X    p    c 
<1>    -    n    -    X 

      <a>  <b>  <c>  <d> 

=10
=16
My result: 
--------------------------
Nega max: 0.141002 (node: 2776142)
(23) -> (27)
< G > -> < c >
move:d3-d2
--------------------------
------------Red-------------
<8>    X    X    X    X 
<7>    X    X    P    N 
<6>    X    X    -    p 
<5>    r    -    r    X 
<4>    X    X    P    - 
<3>    X    n    X    G 
<2>    p    X    p    c 
<1>    -    n    -    X 

      <a>  <b>  <c>  <d> 

=12 d3 d2
# call move(): move : 23-27 
------------Red-------------
<8>    X    X    X    X 
<7>    X    X    P    N 
<6>    X    X    -    p 
<5>    r    -    r    X 
<4>    X    X    P    - 
<3>    X    n    X    - 
<2>    p    X    p    G 
<1>    -    n    -    X 

      <a>  <b>  <c>  <d> 

=10
=16
# call move(): move : 14-18 
------------Red-------------
<8>    X    X    X    X 
<7>    X    X    P    N 
<6>    X    X    -    p 
<5>    r    -    -    X 
<4>    X    X    r    - 
<3>    X    n    X    - 
<2>    p    X    p    G 
<1>    -    n    -    X 

      <a>  <b>  <c>  <d> 

=10
=16
My result: 
--------------------------
Nega max: 0.166973 (node: 2711778)
(9) -> (9)
< X > -> < X >
move:b6-b6
--------------------------
------------Red-------------
<8>    X    X    X    X 
<7>    X    X    P    N 
<6>    X    X    -    p 
<5>    r    -    -    X 
<4>    X    X    r    - 
<3>    X    n    X    - 
<2>    p    X    p    G 
<1>    -    n    -    X 

      <a>  <b>  <c>  <d> 

=12 b6 b6
# call flip(): flip(9,9) = 3
------------Red-------------
<8>    X    X    X    X 
<7>    X    X    P    N 
<6>    X    M    -    p 
<5>    r    -    -    X 
<4>    X    X    r    - 
<3>    X    n    X    - 
<2>    p    X    p    G 
<1>    -    n    -    X 

      <a>  <b>  <c>  <d> 

=11
=16
# call move(): move : 11-10 
------------Red-------------
<8>    X    X    X    X 
<7>    X    X    P    N 
<6>    X    M    p    - 
<5>    r    -    -    X 
<4>    X    X    r    - 
<3>    X    n    X    - 
<2>    p    X    p    G 
<1>    -    n    -    X 

      <a>  <b>  <c>  <d> 

=10
=16
My result: 
--------------------------
Nega max: 0.209469 (node: 2246972)
(4) -> (4)
< X > -> < X >
move:a7-a7
--------------------------
------------Red-------------
<8>    X    X    X    X 
<7>    X    X    P    N 
<6>    X    M    p    - 
<5>    r    -    -    X 
<4>    X    X    r    - 
<3>    X    n    X    - 
<2>    p    X    p    G 
<1>    -    n    -    X 

      <a>  <b>  <c>  <d> 

=12 a7 a7
# call flip(): flip(4,4) = 10
------------Red-------------
<8>    X    X    X    X 
<7>    g    X    P    N 
<6>    X    M    p    - 
<5>    r    -    -    X 
<4>    X    X    r    - 
<3>    X    n    X    - 
<2>    p    X    p    G 
<1>    -    n    -    X 

      <a>  <b>  <c>  <d> 

=11
=16
# call move(): move : 29-28 
------------Red-------------
<8>    X    X    X    X 
<7>    g    X    P    N 
<6>    X    M    p    - 
<5>    r    -    -    X 
<4>    X    X    r    - 
<3>    X    n    X    - 
<2>    p    X    p    G 
<1>    n    -    -    X 

      <a>  <b>  <c>  <d> 

=10
=16
My result: 
--------------------------
Nega max: 0.096691 (node: 1722708)
(15) -> (15)
< X > -> < X >
move:d5-d5
--------------------------
------------Red-------------
<8>    X    X    X    X 
<7>    g    X    P    N 
<6>    X    M    p    - 
<5>    r    -    -    X 
<4>    X    X    r    - 
<3>    X    n    X    - 
<2>    p    X    p    G 
<1>    n    -    -    X 

      <a>  <b>  <c>  <d> 

=12 d5 d5
# call flip(): flip(15,15) = 5
