INITIAL
* 3:01pm Aug 30, 2024
* a0 vs a1
* 1 2 2 2 2 2 5 1 2 2 2 2 2 5
* X X X X
* X X X X
* X X X X
* X X X X
* X X X X
* X X X X
* X X X X
* X X X X
* first 1
* time 900
* 1. d1(p) d3(m)
* 2. c1(C) c3(g)
* 3. d2(R) d2-d1
* 4. b1(P) b2(k)
* 5. c2(P) c1-c3
* 6. d3-c3 c2-b2
* 7. c3-c2 b3(N)
* 8. c2-d2 b4(P)
* 9. d2-d1 a3(p)
* 10. d1-c1 a1(r)
* 11. a1-b1 c5(c)
* 12. c7(m) d5(p)
* 13. a5(M) b5(G)
* 14. c5-a5 c4(g)
* 15. b1-b2 b6(p)
* 16. b2-b3 d8(M)
* 17. c1-b1 a8(K)
* 18. a7(n) a4(n)
* 19. a6(C) d7(G)
* 20. b8(P) b5-a5
* 21. a7-a6 a5-a4
* 22. a2(N) a2-a3
* 23. b7(r) d7-c7
* 24. d4(p) d8-d7
* 25. b3-a3 a4-a3
* 26. c6(R) a3-a2
* 27. d6(P) d6-d5
* 28. d4-d5 a2-a1
* 29. b1-b2 a1-b1
* 30. b2-a2 b1-a1
* 31. a2-b2 a1-a2
* 32. b2-c2 a2-b2
* 33. c2-c1 b2-a2
* 34. b7-b8 a8-b8
* 35. c4-b4 c6-b6
* 36. a6-a5 c8(c)
* 37. b4-b5 b6-a6
* 38. b5-b6 a6-a5
* 39. b6-a6 a5-b5
* 40. a6-a5 b5-b4
* 41. a5-b5 b4-a4
* 42. b5-a5 a2-a3
* 43. d5-c5 c7-b7
* 44. c1-d1 b7-c7
* 45. d1-c1 a4-b4
* 46. a5-b5 a3-a4
* 47. c1-c2 b4-c4
* 48. c2-c3 c4-b4
* 49. c3-c2 b4-b3
* 50. c2-c3 b3-a3
* 51. c3-b3 c7-c8
* 52. b3-b2 d7-c7
* 53. b2-b1 a3-a2
* 54. b1-c1 a2-a1
* 55. c5-c4 a1-a2
* 56. c1-d1 a2-a1
* 57. c4-b4 a4-a3
* 58. d1-c1 a1-a2
* 59. c1-b1 c7-b7
* 60. b1-a1 b7-a7
* 61. a1-b1 a7-b7
* 62. b1-c1 a2-a1
* 63. c1-b1 a1-a2
* 64. b1-a1 a2-b2
* 65. a1-b1 b2-a2
* 66. b1-c1 a3-a4
* 67. c1-d1 a2-a1
* 68. b4-b3 a1-b1
* 69. d1-c1 b1-a1
* 70. c1-b1 a1-a2
* 71. b1-a1 a2-b2
* 72. b3-c3 b2-c2
* 73. c3-b3 c2-d2
* 74. a1-b1 d2-d1
* 75. b1-a1 d1-c1
* 76. a1-b1 c1-d1
* 77. b1-a1 d1-c1
* 78. a1-b1 c1-d1
* 79. b1-a1 d1-d2
* 80. a1-b1 a4-b4
* 81. b5-b4 b7-a7
* 82. b1-a1 d2-d3
* 83. a1-b1 d3-c3
* 84. b3-a3 c3-d3
* 85. b1-a1 d3-d4
* 86. a1-b1 a7-a6
* 87. b1-a1 c8-c7
* 88. a3-b3 d4-d3
* 89. a1-b1 a6-a7
* 90. b1-c1 d3-c3
* 91. c1-b1 c3-c2
* 92. b1-c1 c2-d2
* 93. c1-b1 d2-c2
* 94. b3-a3 c2-d2
* 95. a3-a4 d2-c2
* 96. b4-b3 b8-a8
* 97. b1-a1 c2-d2
* 98. a1-b1 d2-c2
* 99. b3-a3 c7-b7
* 100. a3-a2 c2-d2
* 101. a2-a1 d2-c2
* 102. b1-b2 c2-c1
* 103. b2-a2 a8-b8
* 104. a2-b2 c1-d1
* 105. a1-a2 d1-d2
* 106. b2-b1 d2-c2
* 107. b1-c1 c2-c3
* 108. a2-a1 c3-b3
* 109. c1-b1 b3-a3
* 110. a4-a5 a3-b3
* 111. b1-c1
* NoEatFlipDraw a0 Draw 0.2,0.2375
* Comment 0 0
0. 1725030114781
1. 1725030114781
2. 1725030121842
3. 1725030128137
4. 1725030134902
5. 1725030141384
6. 1725030148070
7. 1725030154006
8. 1725030162223
9. 1725030166378
10. 1725030172533
11. 1725030176720
12. 1725030182578
13. 1725030186077
14. 1725030191685
15. 1725030195044
16. 1725030199964
17. 1725030202901
18. 1725030206994
19. 1725030209618
20. 1725030213695
21. 1725030216007
22. 1725030219741
23. 1725030221725
24. 1725030224302
25. 1725030225599
26. 1725030227692
27. 1725030228739
28. 1725030230363
29. 1725030231113
30. 1725030232332
31. 1725030233035
32. 1725030234019
33. 1725030234534
34. 1725030235253
35. 1725030235581
36. 1725030236065
37. 1725030236331
38. 1725030236643
39. 1725030236909
40. 1725030237065
41. 1725030237284
42. 1725030237502
43. 1725030237737
44. 1725030237908
45. 1725030238158
46. 1725030238393
47. 1725030238611
48. 1725030238846
49. 1725030239111
50. 1725030239377
51. 1725030239564
52. 1725030239861
53. 1725030240095
54. 1725030240299
55. 1725030240533
56. 1725030240783
57. 1725030241017
58. 1725030241158
59. 1725030241392
60. 1725030241611
61. 1725030241829
62. 1725030242095
63. 1725030242329
64. 1725030242548
65. 1725030242767
66. 1725030242985
67. 1725030243204
68. 1725030243423
69. 1725030243641
70. 1725030243860
71. 1725030244079
72. 1725030244298
73. 1725030244532
74. 1725030244766
75. 1725030244969
76. 1725030245204
77. 1725030245469
78. 1725030245704
79. 1725030245907
80. 1725030246141
81. 1725030246297
82. 1725030246500
83. 1725030246735
84. 1725030247000
85. 1725030247234
86. 1725030247516
87. 1725030247719
88. 1725030247937
89. 1725030248156
90. 1725030248422
91. 1725030248672
92. 1725030248922
93. 1725030249171
94. 1725030249406
95. 1725030249656
96. 1725030249906
97. 1725030250156
98. 1725030250406
99. 1725030250640
100. 1725030250890
101. 1725030251140
102. 1725030251390
103. 1725030251640
104. 1725030251890
105. 1725030252140
106. 1725030252389
107. 1725030252639
108. 1725030252889
109. 1725030253139
110. 1725030253374
111. 1725030253624
112. 1725030253873
113. 1725030254123
114. 1725030254389
115. 1725030254623
116. 1725030254826
117. 1725030255061
118. 1725030255279
119. 1725030255498
120. 1725030255764
121. 1725030255998
122. 1725030256201
123. 1725030256435
124. 1725030256576
125. 1725030256810
126. 1725030257060
127. 1725030257310
128. 1725030257560
129. 1725030257794
130. 1725030258060
131. 1725030258294
132. 1725030258497
133. 1725030258732
134. 1725030258997
135. 1725030259216
136. 1725030259419
137. 1725030259653
138. 1725030259856
139. 1725030260091
140. 1725030260294
141. 1725030260528
142. 1725030260778
143. 1725030261012
144. 1725030261215
145. 1725030261450
146. 1725030261653
147. 1725030261887
148. 1725030262090
149. 1725030262325
150. 1725030262590
151. 1725030262824
152. 1725030263074
153. 1725030263324
154. 1725030263574
155. 1725030263809
156. 1725030264012
157. 1725030264246
158. 1725030264449
159. 1725030264668
160. 1725030265043
161. 1725030265293
162. 1725030265496
163. 1725030265730
164. 1725030265996
165. 1725030266230
166. 1725030266480
167. 1725030266714
168. 1725030266917
169. 1725030267152
170. 1725030267417
171. 1725030267651
172. 1725030267917
173. 1725030268151
174. 1725030268401
175. 1725030268636
176. 1725030268839
177. 1725030269073
178. 1725030269276
179. 1725030269510
180. 1725030269713
181. 1725030269948
182. 1725030270198
183. 1725030270432
184. 1725030270635
185. 1725030270869
186. 1725030271135
187. 1725030271369
188. 1725030271635
189. 1725030271854
190. 1725030272057
191. 1725030272291
192. 1725030272494
193. 1725030272728
194. 1725030272994
195. 1725030273228
196. 1725030273494
197. 1725030273728
198. 1725030273978
199. 1725030274212
200. 1725030274416
201. 1725030274650
202. 1725030274915
203. 1725030275150
204. 1725030275353
205. 1725030275587
206. 1725030275837
207. 1725030276071
208. 1725030276274
209. 1725030276509
210. 1725030276712
211. 1725030276946
212. 1725030277149
213. 1725030277384
214. 1725030277587
215. 1725030277821
216. 1725030278024
217. 1725030278258
218. 1725030278508
219. 1725030278696
220. 1725030278946
221. 1725030279180

# 17 37 67 87 117 137 167 187 217 237 267 287 317 337 367 387 417 437 467 487 517 537 567 587 617 637 667 687 717 737 767 787 817 837 867 887 917 937 967 987 1017 1037 1067 1087 1117 1137 1167 1187 1217 1237 1267 1287 1317 1337 1367 1387 1417 1437 1467 1487 1517 1537 1567 1587 1617 1637 1667 1687 1717 1737 1767 1787 1817 1837 1867 1887 1917 1937 1967 1987 2017 2037 2067 2087 2117 2137 2167 2187 2217 2237 2267 2287 2317 2337 2367 2387 2417 2437 2467 2487 2517 2537 2567 2587 2617 2637 2667 2687 2717 2737 2767 2787 2817 2837 2867 2887 2917 2937 2967 2987 3017 3037 3067 3087 3117 3137 3167 3187 3217 3237 3267 3287 3317 3337 3367 3387 3417 3437 3467 3487 3517 3537 3567 3587 3617 3637 3667 3687 3717 3737 3767 3787 3817 3837 3867 3887 3917 3937 3967 3987 4017 4037 4067 4087 4117 4137 4167 4187 4217 4237 4267 4287 4317 4337 4367 4387 4417 4437 4467 4487 4517 4537 4567 4587 4617 4637 4667 4687 4717 4737 4767 4787 4817 4837 4867 4887 4917 4937 4967 4987 5017 5037 5067 5087 5117 5137 5167 5187 5217 5237 5267 5287 5317 5337 5367 5387 5417 5437 5467 5487 5517 5537 #
=1 MyAI
=2 1.0.0
------------Red-------------
<8>    X    X    X    X 
<7>    X    X    X    X 
<6>    X    X    X    X 
<5>    X    X    X    X 
<4>    X    X    X    X 
<3>    X    X    X    X 
<2>    X    X    X    X 
<1>    X    X    X    X 

      <a>  <b>  <c>  <d> 

=7
=15
=14
My result: 
--------------------------
Nega max: -0.185625 (node: 78983040)
(31) -> (31)
< X > -> < X >
move:d1-d1
--------------------------
------------Black-------------
<8>    X    X    X    X 
<7>    X    X    X    X 
<6>    X    X    X    X 
<5>    X    X    X    X 
<4>    X    X    X    X 
<3>    X    X    X    X 
<2>    X    X    X    X 
<1>    X    X    X    X 

      <a>  <b>  <c>  <d> 

=12 d1 d1
# call flip(): flip(31,31) = 15
------------Black-------------
<8>    X    X    X    X 
<7>    X    X    X    X 
<6>    X    X    X    X 
<5>    X    X    X    X 
<4>    X    X    X    X 
<3>    X    X    X    X 
<2>    X    X    X    X 
<1>    X    X    X    p 

      <a>  <b>  <c>  <d> 

=11
=16
# call flip(): flip(23,23) = 11
------------Black-------------
<8>    X    X    X    X 
<7>    X    X    X    X 
<6>    X    X    X    X 
<5>    X    X    X    X 
<4>    X    X    X    X 
<3>    X    X    X    m 
<2>    X    X    X    X 
<1>    X    X    X    p 

      <a>  <b>  <c>  <d> 

=11
=16
My result: 
--------------------------
Nega max: 0.054968 (node: 63731461)
(30) -> (30)
< X > -> < X >
move:c1-c1
--------------------------
------------Black-------------
<8>    X    X    X    X 
<7>    X    X    X    X 
<6>    X    X    X    X 
<5>    X    X    X    X 
<4>    X    X    X    X 
<3>    X    X    X    m 
<2>    X    X    X    X 
<1>    X    X    X    p 

      <a>  <b>  <c>  <d> 

=12 c1 c1
# call flip(): flip(30,30) = 6
------------Black-------------
<8>    X    X    X    X 
<7>    X    X    X    X 
<6>    X    X    X    X 
<5>    X    X    X    X 
<4>    X    X    X    X 
<3>    X    X    X    m 
<2>    X    X    X    X 
<1>    X    X    C    p 

      <a>  <b>  <c>  <d> 

=11
=16
# call flip(): flip(22,22) = 10
------------Black-------------
<8>    X    X    X    X 
<7>    X    X    X    X 
<6>    X    X    X    X 
<5>    X    X    X    X 
<4>    X    X    X    X 
<3>    X    X    g    m 
<2>    X    X    X    X 
<1>    X    X    C    p 

      <a>  <b>  <c>  <d> 

=11
=16
My result: 
--------------------------
Nega max: 0.043497 (node: 50058742)
(27) -> (27)
< X > -> < X >
move:d2-d2
--------------------------
------------Black-------------
<8>    X    X    X    X 
<7>    X    X    X    X 
<6>    X    X    X    X 
<5>    X    X    X    X 
<4>    X    X    X    X 
<3>    X    X    g    m 
<2>    X    X    X    X 
<1>    X    X    C    p 

      <a>  <b>  <c>  <d> 

=12 d2 d2
# call flip(): flip(27,27) = 4
------------Black-------------
<8>    X    X    X    X 
<7>    X    X    X    X 
<6>    X    X    X    X 
<5>    X    X    X    X 
<4>    X    X    X    X 
<3>    X    X    g    m 
<2>    X    X    X    R 
<1>    X    X    C    p 

      <a>  <b>  <c>  <d> 

=11
=16
# call move(): move : 27-31 
------------Black-------------
<8>    X    X    X    X 
<7>    X    X    X    X 
<6>    X    X    X    X 
<5>    X    X    X    X 
<4>    X    X    X    X 
<3>    X    X    g    m 
<2>    X    X    X    - 
<1>    X    X    C    R 

      <a>  <b>  <c>  <d> 

=10
=16
My result: 
--------------------------
Nega max: 0.033610 (node: 44421218)
(29) -> (29)
< X > -> < X >
move:b1-b1
--------------------------
------------Black-------------
<8>    X    X    X    X 
<7>    X    X    X    X 
<6>    X    X    X    X 
<5>    X    X    X    X 
<4>    X    X    X    X 
<3>    X    X    g    m 
<2>    X    X    X    - 
<1>    X    X    C    R 

      <a>  <b>  <c>  <d> 

=12 b1 b1
# call flip(): flip(29,29) = 7
------------Black-------------
<8>    X    X    X    X 
<7>    X    X    X    X 
<6>    X    X    X    X 
<5>    X    X    X    X 
<4>    X    X    X    X 
<3>    X    X    g    m 
<2>    X    X    X    - 
<1>    X    P    C    R 

      <a>  <b>  <c>  <d> 

=11
=16
# call flip(): flip(25,25) = 9
------------Black-------------
<8>    X    X    X    X 
<7>    X    X    X    X 
<6>    X    X    X    X 
<5>    X    X    X    X 
<4>    X    X    X    X 
<3>    X    X    g    m 
<2>    X    k    X    - 
<1>    X    P    C    R 

      <a>  <b>  <c>  <d> 

=11
=16
My result: 
--------------------------
Nega max: 0.103270 (node: 28227593)
(26) -> (26)
< X > -> < X >
move:c2-c2
--------------------------
------------Black-------------
<8>    X    X    X    X 
<7>    X    X    X    X 
<6>    X    X    X    X 
<5>    X    X    X    X 
<4>    X    X    X    X 
<3>    X    X    g    m 
<2>    X    k    X    - 
<1>    X    P    C    R 

      <a>  <b>  <c>  <d> 

=12 c2 c2
# call flip(): flip(26,26) = 7
------------Black-------------
<8>    X    X    X    X 
<7>    X    X    X    X 
<6>    X    X    X    X 
<5>    X    X    X    X 
<4>    X    X    X    X 
<3>    X    X    g    m 
<2>    X    k    P    - 
<1>    X    P    C    R 

      <a>  <b>  <c>  <d> 

=11
=16
# call move(): move : 30-22 
------------Black-------------
<8>    X    X    X    X 
<7>    X    X    X    X 
<6>    X    X    X    X 
<5>    X    X    X    X 
<4>    X    X    X    X 
<3>    X    X    C    m 
<2>    X    k    P    - 
<1>    X    P    -    R 

      <a>  <b>  <c>  <d> 

=10
=16
My result: 
--------------------------
Nega max: 0.035666 (node: 25399730)
(23) -> (22)
< m > -> < C >
move:d3-c3
--------------------------
------------Black-------------
<8>    X    X    X    X 
<7>    X    X    X    X 
<6>    X    X    X    X 
<5>    X    X    X    X 
<4>    X    X    X    X 
<3>    X    X    C    m 
<2>    X    k    P    - 
<1>    X    P    -    R 

      <a>  <b>  <c>  <d> 

=12 d3 c3
# call move(): move : 23-22 
------------Black-------------
<8>    X    X    X    X 
<7>    X    X    X    X 
<6>    X    X    X    X 
<5>    X    X    X    X 
<4>    X    X    X    X 
<3>    X    X    m    - 
<2>    X    k    P    - 
<1>    X    P    -    R 

      <a>  <b>  <c>  <d> 

=10
=16
# call move(): move : 26-25 
------------Black-------------
<8>    X    X    X    X 
<7>    X    X    X    X 
<6>    X    X    X    X 
<5>    X    X    X    X 
<4>    X    X    X    X 
<3>    X    X    m    - 
<2>    X    P    -    - 
<1>    X    P    -    R 

      <a>  <b>  <c>  <d> 

=10
=16
My result: 
--------------------------
Nega max: 0.015562 (node: 25121102)
(22) -> (26)
< m > -> < - >
move:c3-c2
--------------------------
------------Black-------------
<8>    X    X    X    X 
<7>    X    X    X    X 
<6>    X    X    X    X 
<5>    X    X    X    X 
<4>    X    X    X    X 
<3>    X    X    m    - 
<2>    X    P    -    - 
<1>    X    P    -    R 

      <a>  <b>  <c>  <d> 

=12 c3 c2
# call move(): move : 22-26 
------------Black-------------
<8>    X    X    X    X 
<7>    X    X    X    X 
<6>    X    X    X    X 
<5>    X    X    X    X 
<4>    X    X    X    X 
<3>    X    X    -    - 
<2>    X    P    m    - 
<1>    X    P    -    R 

      <a>  <b>  <c>  <d> 

=10
=16
# call flip(): flip(21,21) = 5
------------Black-------------
<8>    X    X    X    X 
<7>    X    X    X    X 
<6>    X    X    X    X 
<5>    X    X    X    X 
<4>    X    X    X    X 
<3>    X    N    -    - 
<2>    X    P    m    - 
<1>    X    P    -    R 

      <a>  <b>  <c>  <d> 

=11
=16
My result: 
--------------------------
Nega max: 0.020403 (node: 21965201)
(26) -> (27)
< m > -> < - >
move:c2-d2
--------------------------
------------Black-------------
<8>    X    X    X    X 
<7>    X    X    X    X 
<6>    X    X    X    X 
<5>    X    X    X    X 
<4>    X    X    X    X 
<3>    X    N    -    - 
<2>    X    P    m    - 
<1>    X    P    -    R 

      <a>  <b>  <c>  <d> 

=12 c2 d2
# call move(): move : 26-27 
------------Black-------------
<8>    X    X    X    X 
<7>    X    X    X    X 
<6>    X    X    X    X 
<5>    X    X    X    X 
<4>    X    X    X    X 
<3>    X    N    -    - 
<2>    X    P    -    m 
<1>    X    P    -    R 

      <a>  <b>  <c>  <d> 

=10
=16
# call flip(): flip(17,17) = 7
------------Black-------------
<8>    X    X    X    X 
<7>    X    X    X    X 
<6>    X    X    X    X 
<5>    X    X    X    X 
<4>    X    P    X    X 
<3>    X    N    -    - 
<2>    X    P    -    m 
<1>    X    P    -    R 

      <a>  <b>  <c>  <d> 

=11
=16
My result: 
--------------------------
Nega max: 0.018945 (node: 18990102)
(27) -> (31)
< m > -> < R >
move:d2-d1
--------------------------
------------Black-------------
<8>    X    X    X    X 
<7>    X    X    X    X 
<6>    X    X    X    X 
<5>    X    X    X    X 
<4>    X    P    X    X 
<3>    X    N    -    - 
<2>    X    P    -    m 
<1>    X    P    -    R 

      <a>  <b>  <c>  <d> 

=12 d2 d1
# call move(): move : 27-31 
------------Black-------------
<8>    X    X    X    X 
<7>    X    X    X    X 
<6>    X    X    X    X 
<5>    X    X    X    X 
<4>    X    P    X    X 
<3>    X    N    -    - 
<2>    X    P    -    - 
<1>    X    P    -    m 

      <a>  <b>  <c>  <d> 

=10
=16
# call flip(): flip(20,20) = 15
------------Black-------------
<8>    X    X    X    X 
<7>    X    X    X    X 
<6>    X    X    X    X 
<5>    X    X    X    X 
<4>    X    P    X    X 
<3>    p    N    -    - 
<2>    X    P    -    - 
<1>    X    P    -    m 

      <a>  <b>  <c>  <d> 

=11
=16
My result: 
--------------------------
Nega max: 0.018877 (node: 16300074)
(31) -> (30)
< m > -> < - >
move:d1-c1
--------------------------
------------Black-------------
<8>    X    X    X    X 
<7>    X    X    X    X 
<6>    X    X    X    X 
<5>    X    X    X    X 
<4>    X    P    X    X 
<3>    p    N    -    - 
<2>    X    P    -    - 
<1>    X    P    -    m 

      <a>  <b>  <c>  <d> 

=12 d1 c1
# call move(): move : 31-30 
------------Black-------------
<8>    X    X    X    X 
<7>    X    X    X    X 
<6>    X    X    X    X 
<5>    X    X    X    X 
<4>    X    P    X    X 
<3>    p    N    -    - 
<2>    X    P    -    - 
<1>    X    P    m    - 

      <a>  <b>  <c>  <d> 

=10
=16
# call flip(): flip(28,28) = 12
------------Black-------------
<8>    X    X    X    X 
<7>    X    X    X    X 
<6>    X    X    X    X 
<5>    X    X    X    X 
<4>    X    P    X    X 
<3>    p    N    -    - 
<2>    X    P    -    - 
<1>    r    P    m    - 

      <a>  <b>  <c>  <d> 

=11
=16
My result: 
--------------------------
Nega max: 0.026928 (node: 13941069)
(28) -> (29)
< r > -> < P >
move:a1-b1
--------------------------
------------Black-------------
<8>    X    X    X    X 
<7>    X    X    X    X 
<6>    X    X    X    X 
<5>    X    X    X    X 
<4>    X    P    X    X 
<3>    p    N    -    - 
<2>    X    P    -    - 
<1>    r    P    m    - 

      <a>  <b>  <c>  <d> 

=12 a1 b1
# call move(): move : 28-29 
------------Black-------------
<8>    X    X    X    X 
<7>    X    X    X    X 
<6>    X    X    X    X 
<5>    X    X    X    X 
<4>    X    P    X    X 
<3>    p    N    -    - 
<2>    X    P    -    - 
<1>    -    r    m    - 

      <a>  <b>  <c>  <d> 

=10
=16
# call flip(): flip(14,14) = 14
------------Black-------------
<8>    X    X    X    X 
<7>    X    X    X    X 
<6>    X    X    X    X 
<5>    X    X    c    X 
<4>    X    P    X    X 
<3>    p    N    -    - 
<2>    X    P    -    - 
<1>    -    r    m    - 

      <a>  <b>  <c>  <d> 

=11
=16
My result: 
--------------------------
Nega max: 0.119432 (node: 11689168)
(6) -> (6)
< X > -> < X >
move:c7-c7
--------------------------
------------Black-------------
<8>    X    X    X    X 
<7>    X    X    X    X 
<6>    X    X    X    X 
<5>    X    X    c    X 
<4>    X    P    X    X 
<3>    p    N    -    - 
<2>    X    P    -    - 
<1>    -    r    m    - 

      <a>  <b>  <c>  <d> 

=12 c7 c7
# call flip(): flip(6,6) = 11
------------Black-------------
<8>    X    X    X    X 
<7>    X    X    m    X 
<6>    X    X    X    X 
<5>    X    X    c    X 
<4>    X    P    X    X 
<3>    p    N    -    - 
<2>    X    P    -    - 
<1>    -    r    m    - 

      <a>  <b>  <c>  <d> 

=11
=16
# call flip(): flip(15,15) = 15
------------Black-------------
<8>    X    X    X    X 
<7>    X    X    m    X 
<6>    X    X    X    X 
<5>    X    X    c    p 
<4>    X    P    X    X 
<3>    p    N    -    - 
<2>    X    P    -    - 
<1>    -    r    m    - 

      <a>  <b>  <c>  <d> 

=11
=16
My result: 
--------------------------
Nega max: 0.157865 (node: 6520318)
(12) -> (12)
< X > -> < X >
move:a5-a5
--------------------------
------------Black-------------
<8>    X    X    X    X 
<7>    X    X    m    X 
<6>    X    X    X    X 
